#      omega [at.u.]      x,real [at.u.]      x,imag [at.u.]      y,real [at.u.]      y,imag [at.u.]      z,real [at.u.]      z,imag [at.u.]
    -0.75991492E+001    -0.47851481E-004    -0.30117784E-010    -0.17521590E-008     0.18914604E-009    -0.45287333E-008    -0.20256362E-008
    -0.75915501E+001    -0.47851457E-004     0.47766789E-009    -0.13495202E-008    -0.59523345E-009    -0.23623232E-009     0.93304986E-009
    -0.75839509E+001    -0.47852082E-004     0.94866748E-009    -0.68920485E-009    -0.66085087E-010    -0.74892544E-008     0.61315693E-008
    -0.75763518E+001    -0.47852793E-004     0.11493591E-008    -0.14838352E-008    -0.39401204E-009    -0.12296708E-007    -0.80959743E-008
    -0.75687526E+001    -0.47853549E-004     0.16808800E-008    -0.13939907E-008     0.26189549E-009    -0.10847166E-008    -0.99297714E-008
    -0.75611535E+001    -0.47855001E-004     0.24622788E-008    -0.49046669E-009    -0.10691814E-009     0.25151225E-010    -0.10699062E-007
    -0.75535543E+001    -0.47856905E-004     0.27051301E-008    -0.27995939E-008     0.13614700E-008     0.75861759E-008    -0.43099915E-008
    -0.75459552E+001    -0.47858584E-004     0.32237874E-008    -0.35808445E-008    -0.82078429E-009     0.91305273E-008     0.48204611E-009
    -0.75383560E+001    -0.47861043E-004     0.38260803E-008    -0.31616426E-008    -0.28654201E-008     0.63964817E-008     0.60172443E-008
    -0.75307569E+001    -0.47863713E-004     0.40246935E-008    -0.28528151E-009    -0.37955687E-008     0.25569989E-008     0.53158523E-008
    -0.75231577E+001    -0.47866327E-004     0.43937447E-008     0.93084324E-009    -0.19415944E-008    -0.17259134E-008     0.66718115E-008
    -0.75155586E+001    -0.47869420E-004     0.49529393E-008     0.33350563E-009    -0.13819812E-008    -0.43095180E-008     0.48311611E-008
    -0.75079594E+001    -0.47872984E-004     0.51461722E-008     0.10116734E-008    -0.12086739E-008    -0.61561197E-008     0.73780182E-008
    -0.75003603E+001    -0.47876288E-004     0.53752506E-008     0.11475494E-008     0.52005226E-009    -0.10652781E-007     0.15024341E-008
    -0.74927611E+001    -0.47880231E-004     0.60054541E-008    -0.16447085E-009     0.35161170E-010    -0.59751938E-008    -0.14187632E-008
    -0.74851620E+001    -0.47884410E-004     0.62325770E-008    -0.27036199E-009    -0.46876642E-009    -0.10818696E-007     0.84135104E-009
    -0.74775628E+001    -0.47888565E-004     0.65901773E-008     0.21649024E-009    -0.43869017E-009    -0.10224159E-007    -0.52678373E-008
    -0.74699637E+001    -0.47893200E-004     0.72365195E-008     0.11268872E-008    -0.16425972E-009    -0.75214575E-008    -0.11381352E-007
    -0.74623645E+001    -0.47898290E-004     0.77645048E-008     0.46118062E-009     0.24717855E-008    -0.28011478E-008    -0.10723912E-007
    -0.74547654E+001    -0.47903418E-004     0.81149362E-008    -0.18830584E-008     0.16374062E-008     0.19452885E-008    -0.11021269E-007
    -0.74471662E+001    -0.47909097E-004     0.88768778E-008    -0.17398524E-008    -0.20561002E-009     0.24940005E-008    -0.11503072E-007
    -0.74395671E+001    -0.47915254E-004     0.91287701E-008    -0.12553007E-008     0.41405416E-009     0.10882436E-007    -0.65394552E-008
    -0.74319679E+001    -0.47921318E-004     0.93609615E-008    -0.18741019E-008     0.34960253E-009     0.52695335E-008    -0.10787633E-008
    -0.74243688E+001    -0.47927793E-004     0.98392519E-008    -0.28304713E-008    -0.20957193E-009     0.53933449E-008    -0.31972326E-008
    -0.74167696E+001    -0.47934599E-004     0.10107531E-007    -0.25520358E-008    -0.20867847E-008     0.10944268E-007    -0.77918897E-008
    -0.74091705E+001    -0.47941428E-004     0.10225515E-007    -0.17054999E-008    -0.23441350E-008     0.15564115E-007     0.57637181E-008
    -0.74015714E+001    -0.47948493E-004     0.10857729E-007    -0.51252234E-009    -0.17789263E-008     0.50969273E-008     0.12323774E-007
    -0.73939722E+001    -0.47956194E-004     0.11225729E-007    -0.81374731E-009    -0.35842204E-008    -0.29394111E-008     0.44458587E-008
    -0.73863731E+001    -0.47963749E-004     0.11550320E-007     0.13232019E-008    -0.26423546E-008     0.25286386E-008     0.31250706E-008
    -0.73787739E+001    -0.47971905E-004     0.12258651E-007     0.10970230E-008    -0.93500834E-009    -0.69467849E-009     0.54266357E-008
    -0.73711748E+001    -0.47980649E-004     0.12685102E-007     0.18293404E-008     0.50694851E-009    -0.16169950E-008     0.33340351E-008
    -0.73635756E+001    -0.47989404E-004     0.12963517E-007    -0.24107004E-008    -0.11966775E-008     0.10719327E-008     0.48398571E-008
    -0.73559765E+001    -0.47998352E-004     0.13529145E-007     0.39488216E-009    -0.29185396E-008    -0.34685996E-008    -0.17722695E-009
    -0.73483773E+001    -0.48008130E-004     0.13954938E-007     0.10598622E-008    -0.21107249E-008     0.19682815E-008     0.50880042E-008
    -0.73407782E+001    -0.48017743E-004     0.14083583E-007     0.28054073E-008    -0.17995122E-008    -0.71313868E-008     0.78941779E-008
    -0.73331790E+001    -0.48027704E-004     0.14660534E-007     0.25940227E-008     0.11765259E-008    -0.78003588E-008    -0.30131349E-008
    -0.73255799E+001    -0.48038359E-004     0.14971801E-007     0.44521273E-009     0.36134546E-009    -0.20400039E-008    -0.47009857E-008
    -0.73179807E+001    -0.48048994E-004     0.15086816E-007     0.52126007E-009     0.81109859E-009    -0.13918085E-008    -0.19626641E-008
    -0.73103816E+001    -0.48059794E-004     0.15475954E-007    -0.76140628E-009    -0.12366550E-008     0.27975985E-009    -0.53475683E-008
    -0.73027824E+001    -0.48071393E-004     0.16001654E-007     0.75591766E-009    -0.16729486E-008     0.75357155E-008    -0.24730340E-008
    -0.72951833E+001    -0.48083122E-004     0.16031588E-007     0.19278382E-008    -0.17084654E-008     0.42422803E-008     0.20716049E-009
    -0.72875841E+001    -0.48095074E-004     0.16573291E-007     0.29848841E-008     0.15112252E-009     0.58658644E-008     0.54615453E-008
    -0.72799850E+001    -0.48108126E-004     0.17130269E-007     0.23823176E-008     0.10430491E-008     0.24868943E-008     0.12297139E-007
    -0.72723858E+001    -0.48121551E-004     0.17307324E-007     0.30639409E-008     0.23601790E-008    -0.75848593E-008     0.10208844E-007
    -0.72647867E+001    -0.48135392E-004     0.17605277E-007    -0.64390852E-009     0.32347943E-008    -0.10172401E-007     0.18756709E-008
    -0.72571875E+001    -0.48150267E-004     0.17944496E-007    -0.13965996E-008     0.73596017E-009    -0.94372608E-008    -0.22909181E-008
    -0.72495884E+001    -0.48166012E-004     0.17558777E-007    -0.89671617E-009     0.12463113E-008    -0.51514653E-008    -0.79564401E-008
    -0.72419892E+001    -0.48182319E-004     0.17260158E-007    -0.93368737E-009    -0.17783210E-008    -0.25842177E-008    -0.62457732E-008
    -0.72343901E+001    -0.48200642E-004     0.16817423E-007     0.15734496E-008     0.48870071E-009     0.47940182E-008    -0.19311466E-008
    -0.72267909E+001    -0.48221192E-004     0.15228966E-007     0.86533437E-009    -0.10202754E-009    -0.31237136E-008     0.13945190E-008
    -0.72191918E+001    -0.48245332E-004     0.12375539E-007     0.70007062E-009     0.13296322E-008    -0.50456814E-008    -0.55025571E-009
    -0.72115926E+001    -0.48277045E-004     0.57522153E-008     0.11352901E-008     0.12353205E-009    -0.57673095E-008    -0.80820881E-008
    -0.72039935E+001    -0.48324941E-004    -0.15779212E-007     0.66696269E-009     0.28035067E-008     0.44779446E-008    -0.10955084E-007
    -0.71963943E+001    -0.48393082E-004    -0.12085524E-006    -0.13594744E-008     0.17442655E-008     0.47827707E-008     0.20855220E-009
    -0.71887952E+001    -0.48129598E-004    -0.22729233E-006    -0.79945862E-009     0.70551331E-009     0.49181372E-009    -0.35308590E-008
    -0.71811960E+001    -0.48145145E-004    -0.37590999E-007    -0.28071666E-009     0.81895407E-009     0.39689730E-008    -0.50281506E-008
    -0.71735969E+001    -0.48202044E-004     0.34098754E-009    -0.13160044E-008    -0.52198358E-010     0.10353864E-007    -0.59413644E-008
    -0.71659977E+001    -0.48239427E-004     0.11991137E-007     0.14975221E-008    -0.15745311E-008     0.11512713E-007     0.71248787E-010
    -0.71583986E+001    -0.48268255E-004     0.16982180E-007     0.23649629E-008     0.20406323E-008     0.11185153E-007     0.88247064E-008
    -0.71507994E+001    -0.48292572E-004     0.19454334E-007    -0.97071156E-010     0.24839395E-008     0.14287338E-008     0.12154430E-007
    -0.71432003E+001    -0.48314764E-004     0.21380656E-007     0.19154106E-009     0.24596507E-008     0.78593041E-009     0.11833253E-007
    -0.71356011E+001    -0.48335926E-004     0.22417724E-007    -0.12996636E-008     0.12477125E-008    -0.41130268E-008     0.24366612E-008
    -0.71280020E+001    -0.48355903E-004     0.23225290E-007     0.59075003E-009     0.10695588E-008    -0.39697150E-008     0.51967135E-008
    -0.71204028E+001    -0.48375666E-004     0.24190433E-007     0.12314474E-008     0.26471588E-008    -0.80909980E-008    -0.32374257E-008
    -0.71128037E+001    -0.48395378E-004     0.24922924E-007    -0.15224918E-008     0.47386465E-008     0.58974270E-008    -0.20736251E-008
    -0.71052045E+001    -0.48414852E-004     0.25494127E-007    -0.33530646E-008     0.27815068E-008     0.39829695E-008     0.36631816E-008
    -0.70976054E+001    -0.48434400E-004     0.26442282E-007    -0.36545758E-008     0.22208329E-008     0.78942719E-009     0.47904133E-008
    -0.70900062E+001    -0.48454545E-004     0.27051410E-007    -0.39243489E-008    -0.19387964E-009     0.17470944E-008     0.33125246E-008
    -0.70824071E+001    -0.48474345E-004     0.27445648E-007    -0.24047011E-008     0.38749718E-010    -0.47148216E-009     0.71854377E-008
    -0.70748079E+001    -0.48494447E-004     0.28075283E-007    -0.31191322E-008     0.21699081E-009    -0.15603017E-008     0.57704012E-008
    -0.70672088E+001    -0.48514933E-004     0.28345273E-007    -0.30281513E-008    -0.55778000E-010    -0.30767783E-008     0.61925240E-008
    -0.70596096E+001    -0.48535296E-004     0.28589805E-007    -0.28319986E-008    -0.28304120E-008    -0.43836515E-008    -0.58195474E-009
    -0.70520105E+001    -0.48555702E-004     0.29121012E-007    -0.32284017E-009    -0.98015464E-009     0.34224552E-008    -0.38100564E-009
    -0.70444113E+001    -0.48576800E-004     0.29553450E-007    -0.18451503E-008    -0.88347253E-009     0.64982168E-008     0.12201157E-007
    -0.70368122E+001    -0.48597682E-004     0.29723097E-007    -0.93073325E-009    -0.93486046E-009    -0.50733108E-008     0.15901456E-007
    -0.70292130E+001    -0.48618800E-004     0.30420720E-007    -0.17609689E-008    -0.16748864E-008    -0.11681182E-007     0.12443308E-007
    -0.70216139E+001    -0.48640633E-004     0.30900234E-007     0.76165766E-009    -0.28377240E-008    -0.13923252E-007     0.19417411E-008
    -0.70140147E+001    -0.48662441E-004     0.31208127E-007     0.24634717E-008     0.39622840E-009    -0.59607227E-008    -0.34416039E-008
    -0.70064156E+001    -0.48684420E-004     0.31754061E-007    -0.62002537E-009     0.20859215E-008    -0.36925540E-008     0.84856753E-008
    -0.69988164E+001    -0.48707089E-004     0.32418422E-007    -0.14462625E-008     0.19652067E-008    -0.12833364E-007     0.43589539E-008
    -0.69912173E+001    -0.48729798E-004     0.32555573E-007    -0.36734942E-008     0.17802147E-009    -0.12416421E-007    -0.13687802E-008
    -0.69836181E+001    -0.48752542E-004     0.33163418E-007    -0.22566965E-008    -0.15827490E-008    -0.90263607E-008    -0.42707257E-008
    -0.69760190E+001    -0.48776171E-004     0.33695896E-007    -0.13414829E-008    -0.23313803E-008    -0.87955238E-008    -0.67992796E-009
    -0.69684198E+001    -0.48799810E-004     0.33731484E-007     0.62615034E-009    -0.22399550E-008    -0.64084334E-008    -0.74827594E-008
    -0.69608207E+001    -0.48823478E-004     0.34065824E-007     0.77668701E-009     0.84202293E-009    -0.37628404E-008     0.25869430E-010
    -0.69532215E+001    -0.48847610E-004     0.34610509E-007    -0.86653240E-009     0.19326982E-009    -0.94950365E-008    -0.53234491E-008
    -0.69456224E+001    -0.48872051E-004     0.34623895E-007    -0.80094683E-009    -0.12884063E-008    -0.50298068E-009    -0.94418824E-008
    -0.69380232E+001    -0.48896300E-004     0.35076660E-007    -0.18365887E-009     0.85853495E-009     0.39788153E-008    -0.24509992E-008
    -0.69304241E+001    -0.48921340E-004     0.35853186E-007    -0.18994820E-008    -0.95706933E-009    -0.48760049E-008     0.45150795E-008
    -0.69228249E+001    -0.48946690E-004     0.36085116E-007    -0.28128007E-009    -0.21058330E-008    -0.60865461E-008    -0.23071149E-008
    -0.69152258E+001    -0.48972150E-004     0.36634468E-007     0.12111813E-008    -0.80673704E-009    -0.72687813E-008     0.46594262E-009
    -0.69076267E+001    -0.48998179E-004     0.37314749E-007     0.13646550E-008     0.40291985E-009    -0.89318844E-008    -0.10315411E-007
    -0.69000275E+001    -0.49024776E-004     0.37550436E-007     0.28057169E-009     0.15066437E-008    -0.13961701E-008    -0.66902803E-008
    -0.68924284E+001    -0.49051093E-004     0.37743900E-007     0.22057558E-009     0.10122473E-008     0.23675653E-008    -0.86357000E-008
    -0.68848292E+001    -0.49077942E-004     0.38297303E-007    -0.18046358E-009     0.10876548E-008     0.77247774E-008     0.28445283E-008
    -0.68772301E+001    -0.49105270E-004     0.38402333E-007     0.48984477E-009     0.24197999E-008    -0.87237610E-008     0.63573749E-008
    -0.68696309E+001    -0.49132418E-004     0.38706365E-007    -0.27517965E-008     0.51998133E-008    -0.13487523E-007    -0.79421113E-008
    -0.68620318E+001    -0.49160055E-004     0.39182692E-007    -0.69065041E-008     0.75987610E-009     0.42040569E-009    -0.81337384E-008
    -0.68544326E+001    -0.49188249E-004     0.39525591E-007    -0.28437634E-008    -0.29542740E-008    -0.44508464E-008    -0.52398724E-008
    -0.68468335E+001    -0.49216374E-004     0.39725152E-007    -0.18190005E-008    -0.16151713E-008    -0.11780205E-008    -0.14227566E-007
    -0.68392343E+001    -0.49244944E-004     0.40409424E-007    -0.23632025E-008    -0.18478775E-008     0.11015494E-007    -0.35558464E-008
    -0.68316352E+001    -0.49274195E-004     0.40787938E-007    -0.11883172E-008    -0.32436849E-008     0.22184523E-008     0.72882064E-008
    -0.68240360E+001    -0.49303258E-004     0.41104906E-007     0.55986137E-009    -0.27429693E-008    -0.16618918E-008    -0.20495428E-009
    -0.68164369E+001    -0.49332917E-004     0.41723534E-007     0.23337682E-008    -0.45871062E-009    -0.12533301E-007    -0.10930329E-008
    -0.68088377E+001    -0.49363055E-004     0.42186594E-007    -0.21972530E-009     0.13642950E-008    -0.27612770E-008    -0.12259759E-007
    -0.68012386E+001    -0.49393330E-004     0.42411136E-007    -0.10298623E-008     0.19707682E-009     0.38946607E-008    -0.31082199E-008
    -0.67936394E+001    -0.49423948E-004     0.42928561E-007    -0.18970812E-008    -0.67554549E-009    -0.22611152E-008    -0.38612616E-008
    -0.67860403E+001    -0.49455224E-004     0.43134802E-007     0.11614505E-009    -0.45192799E-010    -0.51790811E-008    -0.40872166E-008
    -0.67784411E+001    -0.49486287E-004     0.43107582E-007    -0.81560459E-009     0.13110451E-008     0.18232998E-008    -0.11513150E-007
    -0.67708420E+001    -0.49517720E-004     0.43612442E-007    -0.33208063E-008    -0.78591724E-009     0.56211761E-008    -0.73469684E-008
    -0.67632428E+001    -0.49549572E-004     0.43868107E-007    -0.12336513E-008    -0.23515888E-008     0.51465175E-008    -0.29160411E-008
    -0.67556437E+001    -0.49581622E-004     0.44108897E-007     0.28145973E-008    -0.97032046E-009     0.11048325E-010    -0.26427449E-008
    -0.67480445E+001    -0.49613968E-004     0.44782964E-007    -0.24054470E-011     0.20656510E-008     0.28459892E-009    -0.90317178E-008
    -0.67404454E+001    -0.49647070E-004     0.45362072E-007    -0.22813622E-008     0.12159259E-008     0.82198995E-008    -0.12747025E-007
    -0.67328462E+001    -0.49680311E-004     0.45546182E-007    -0.18773989E-008    -0.38624103E-009     0.14574380E-007    -0.91133727E-009
    -0.67252471E+001    -0.49713845E-004     0.46257472E-007    -0.25489713E-008    -0.45570498E-009     0.87400069E-008     0.51586750E-008
    -0.67176479E+001    -0.49748077E-004     0.46568507E-007    -0.16608063E-008    -0.23961058E-008     0.21560113E-008     0.26493973E-008
    -0.67100488E+001    -0.49782342E-004     0.46631798E-007    -0.10966955E-009    -0.11799542E-008     0.38525052E-008    -0.16155525E-008
    -0.67024496E+001    -0.49816758E-004     0.47014497E-007    -0.16241400E-009    -0.61301564E-010     0.11104654E-007    -0.69345272E-009
    -0.66948505E+001    -0.49851902E-004     0.47444387E-007    -0.17170187E-008     0.30597521E-009     0.11145111E-007     0.10032586E-007
    -0.66872513E+001    -0.49887264E-004     0.47424629E-007    -0.17612426E-008    -0.11630711E-008     0.14898657E-008     0.94072805E-008
    -0.66796522E+001    -0.49922571E-004     0.47940487E-007    -0.13032716E-008    -0.11659770E-008    -0.23883703E-008     0.43564850E-008
    -0.66720530E+001    -0.49958770E-004     0.48408651E-007    -0.17839923E-008    -0.24573397E-008     0.63827808E-009     0.49961219E-008
    -0.66644539E+001    -0.49994990E-004     0.48484752E-007     0.60232319E-009    -0.21005491E-008    -0.55559029E-008     0.22246523E-008
    -0.66568547E+001    -0.50031362E-004     0.48930821E-007    -0.44316691E-009    -0.67004803E-009    -0.74188871E-009    -0.15724813E-008
    -0.66492556E+001    -0.50068467E-004     0.49553288E-007    -0.43599608E-009    -0.12454050E-008     0.65335352E-008    -0.20982432E-008
    -0.66416564E+001    -0.50105983E-004     0.49697124E-007     0.43087051E-009    -0.26780400E-008     0.93445034E-008     0.36049544E-008
    -0.66340573E+001    -0.50143421E-004     0.50111398E-007     0.17500186E-008    -0.12410470E-008     0.23116355E-008     0.11988204E-007
    -0.66264581E+001    -0.50181861E-004     0.50845499E-007     0.16184402E-008     0.12985932E-010    -0.37906744E-008     0.87889740E-008
    -0.66188590E+001    -0.50220589E-004     0.50955697E-007     0.53121884E-009    -0.73861471E-010    -0.64087586E-008     0.86616913E-008
    -0.66112598E+001    -0.50259356E-004     0.51203246E-007     0.77516196E-009     0.12255093E-008    -0.79140382E-008     0.31852473E-008
    -0.66036607E+001    -0.50298698E-004     0.51585540E-007    -0.10907120E-008     0.14909315E-008    -0.87154848E-008     0.18968389E-008
    -0.65960615E+001    -0.50338444E-004     0.51628005E-007    -0.18690277E-008    -0.44650399E-009    -0.60425880E-008    -0.21864887E-008
    -0.65884624E+001    -0.50377968E-004     0.51695868E-007    -0.10948559E-008     0.18891109E-009    -0.28001280E-008     0.12046662E-008
    -0.65808632E+001    -0.50418152E-004     0.52364837E-007    -0.44875890E-009    -0.12291202E-008    -0.73715695E-008    -0.94527647E-010
    -0.65732641E+001    -0.50458979E-004     0.52574120E-007    -0.13808127E-008     0.73394071E-009    -0.67739319E-008    -0.68641005E-008
    -0.65656649E+001    -0.50499804E-004     0.52928525E-007    -0.10764236E-008    -0.21819747E-008    -0.11766848E-008    -0.37681409E-008
    -0.65580658E+001    -0.50541311E-004     0.53564690E-007     0.14499013E-010    -0.64825143E-009    -0.59352061E-009    -0.55740534E-008
    -0.65504666E+001    -0.50583443E-004     0.53935470E-007    -0.36903083E-009    -0.83754789E-009     0.31354071E-008    -0.43226904E-008
    -0.65428675E+001    -0.50625629E-004     0.54037045E-007    -0.80385923E-009     0.54652917E-009     0.26232587E-008    -0.12943651E-008
