#          Time [fs] re(mom_t) x [at.u.] re(mom_t) y [at.u.] re(mom_t) z [at.u.]
     0.00000000E+000     0.50223859E-010     0.71276762E-010     0.67403860E-010
     0.10000000E-001     0.41736938E-003    -0.80990503E-009     0.26525093E-008
     0.20000000E-001     0.72351394E-003    -0.48353352E-008     0.82131146E-008
     0.30000000E-001     0.90230504E-003    -0.97975366E-008     0.14225910E-007
     0.40000000E-001     0.97861320E-003    -0.18595320E-007     0.25790357E-007
     0.50000000E-001     0.96076020E-003    -0.24348338E-007     0.52297456E-007
     0.60000000E-001     0.85297410E-003    -0.28620686E-007     0.81336294E-007
     0.70000000E-001     0.69381089E-003    -0.36225417E-007     0.10196534E-006
     0.80000000E-001     0.55417939E-003    -0.42523759E-007     0.10989408E-006
     0.90000000E-001     0.45701113E-003    -0.45583272E-007     0.10369579E-006
     0.10000000E+000     0.36318113E-003    -0.44848869E-007     0.88492410E-007
     0.11000000E+000     0.26449521E-003    -0.41805696E-007     0.73714634E-007
     0.12000000E+000     0.19567496E-003    -0.35920817E-007     0.71993455E-007
     0.13000000E+000     0.15975811E-003    -0.29871435E-007     0.76259790E-007
     0.14000000E+000     0.12253348E-003    -0.25427043E-007     0.87797777E-007
     0.15000000E+000     0.62902046E-004    -0.22792637E-007     0.99731190E-007
     0.16000000E+000    -0.23049778E-004    -0.21693980E-007     0.10194979E-006
     0.17000000E+000    -0.13782705E-003    -0.19909272E-007     0.10310377E-006
     0.18000000E+000    -0.26556827E-003    -0.21562272E-007     0.10274973E-006
     0.19000000E+000    -0.37009117E-003    -0.26925248E-007     0.95491884E-007
     0.20000000E+000    -0.42780614E-003    -0.29667936E-007     0.10098673E-006
     0.21000000E+000    -0.43825393E-003    -0.29787611E-007     0.11568916E-006
     0.22000000E+000    -0.39757914E-003    -0.32503089E-007     0.12393754E-006
     0.23000000E+000    -0.29360180E-003    -0.34168664E-007     0.13090511E-006
     0.24000000E+000    -0.14762090E-003    -0.35833403E-007     0.13603257E-006
     0.25000000E+000    -0.11637406E-004    -0.36760888E-007     0.14291312E-006
     0.26000000E+000     0.99013362E-004    -0.39340296E-007     0.13686567E-006
     0.27000000E+000     0.19557583E-003    -0.38640556E-007     0.13151455E-006
     0.28000000E+000     0.25328202E-003    -0.38821412E-007     0.12484867E-006
     0.29000000E+000     0.24727425E-003    -0.39901003E-007     0.12001122E-006
     0.30000000E+000     0.20570139E-003    -0.40666978E-007     0.10879048E-006
     0.31000000E+000     0.16627214E-003    -0.42486377E-007     0.94621042E-007
     0.32000000E+000     0.12524587E-003    -0.43152253E-007     0.86241952E-007
     0.33000000E+000     0.60379867E-004    -0.40234018E-007     0.83595229E-007
     0.34000000E+000    -0.16242953E-004    -0.38037097E-007     0.86651000E-007
     0.35000000E+000    -0.71674168E-004    -0.35302518E-007     0.83529088E-007
     0.36000000E+000    -0.11248891E-003    -0.32252284E-007     0.83302048E-007
     0.37000000E+000    -0.16843208E-003    -0.30044425E-007     0.83708231E-007
     0.38000000E+000    -0.22945412E-003    -0.30915071E-007     0.83462356E-007
     0.39000000E+000    -0.25346745E-003    -0.30828281E-007     0.87315348E-007
     0.40000000E+000    -0.22831701E-003    -0.30297500E-007     0.10400667E-006
     0.41000000E+000    -0.19545750E-003    -0.33462018E-007     0.12050673E-006
     0.42000000E+000    -0.19591310E-003    -0.37754492E-007     0.13130549E-006
     0.43000000E+000    -0.22097818E-003    -0.42716795E-007     0.13339130E-006
     0.44000000E+000    -0.24264651E-003    -0.44592299E-007     0.11791888E-006
     0.45000000E+000    -0.25872969E-003    -0.47159410E-007     0.96071396E-007
     0.46000000E+000    -0.28113803E-003    -0.47894755E-007     0.67844049E-007
     0.47000000E+000    -0.29141024E-003    -0.44283498E-007     0.47158707E-007
     0.48000000E+000    -0.25091078E-003    -0.40519332E-007     0.19120244E-007
     0.49000000E+000    -0.15924256E-003    -0.39629521E-007    -0.74396249E-008
     0.50000000E+000    -0.47253849E-004    -0.39024088E-007    -0.27949153E-007
     0.51000000E+000     0.68089370E-004    -0.38224433E-007    -0.33277964E-007
     0.52000000E+000     0.18511822E-003    -0.37562430E-007    -0.27263746E-007
     0.53000000E+000     0.31006623E-003    -0.39312883E-007    -0.22848631E-007
     0.54000000E+000     0.44425223E-003    -0.38743087E-007    -0.18714672E-007
     0.55000000E+000     0.56421159E-003    -0.37491666E-007    -0.49010866E-008
     0.56000000E+000     0.63109630E-003    -0.38787371E-007     0.96881649E-008
     0.57000000E+000     0.62010215E-003    -0.36616997E-007     0.20644523E-007
     0.58000000E+000     0.53909760E-003    -0.31623554E-007     0.30739675E-007
     0.59000000E+000     0.40316186E-003    -0.26931128E-007     0.34469424E-007
     0.60000000E+000     0.21024128E-003    -0.25628184E-007     0.32247073E-007
     0.61000000E+000    -0.10761491E-004    -0.24292596E-007     0.35882724E-007
     0.62000000E+000    -0.18329563E-003    -0.21107674E-007     0.33865600E-007
     0.63000000E+000    -0.26958132E-003    -0.17254576E-007     0.17952241E-007
     0.64000000E+000    -0.30526233E-003    -0.15039338E-007     0.20293287E-008
     0.65000000E+000    -0.31998236E-003    -0.15470738E-007    -0.16898202E-007
     0.66000000E+000    -0.30233918E-003    -0.18270200E-007    -0.33325860E-007
     0.67000000E+000    -0.26237924E-003    -0.20746329E-007    -0.48969836E-007
     0.68000000E+000    -0.24518444E-003    -0.21621670E-007    -0.53193135E-007
     0.69000000E+000    -0.26290463E-003    -0.22000558E-007    -0.56049398E-007
     0.70000000E+000    -0.28031066E-003    -0.22407810E-007    -0.57495269E-007
     0.71000000E+000    -0.27569018E-003    -0.21771931E-007    -0.61196895E-007
     0.72000000E+000    -0.26409568E-003    -0.21621966E-007    -0.58436370E-007
     0.73000000E+000    -0.24742538E-003    -0.20871632E-007    -0.52025535E-007
     0.74000000E+000    -0.19197202E-003    -0.18147777E-007    -0.33297628E-007
     0.75000000E+000    -0.90600891E-004    -0.14802968E-007    -0.45364912E-008
     0.76000000E+000     0.18782450E-004    -0.10940908E-007     0.20017011E-007
     0.77000000E+000     0.11985092E-003    -0.80068061E-008     0.40276011E-007
     0.78000000E+000     0.22193206E-003    -0.82688829E-008     0.59589127E-007
     0.79000000E+000     0.31383551E-003    -0.10832959E-007     0.68204636E-007
     0.80000000E+000     0.36425336E-003    -0.15326071E-007     0.69112589E-007
     0.81000000E+000     0.34564320E-003    -0.21057294E-007     0.65202332E-007
     0.82000000E+000     0.26851238E-003    -0.28739370E-007     0.55118485E-007
     0.83000000E+000     0.17185885E-003    -0.33143213E-007     0.54227829E-007
     0.84000000E+000     0.64733032E-004    -0.37815194E-007     0.67603066E-007
     0.85000000E+000    -0.50324445E-004    -0.41384805E-007     0.81343552E-007
     0.86000000E+000    -0.13360959E-003    -0.43750504E-007     0.97943672E-007
     0.87000000E+000    -0.15413988E-003    -0.45208448E-007     0.11358304E-006
     0.88000000E+000    -0.11940928E-003    -0.49638079E-007     0.13127222E-006
     0.89000000E+000    -0.47101910E-004    -0.54890043E-007     0.14851105E-006
     0.90000000E+000     0.51649168E-004    -0.58921885E-007     0.16675182E-006
     0.91000000E+000     0.15745435E-003    -0.60326412E-007     0.17651101E-006
     0.92000000E+000     0.23006948E-003    -0.60916253E-007     0.17954429E-006
     0.93000000E+000     0.24968089E-003    -0.57716291E-007     0.17427320E-006
     0.94000000E+000     0.24415176E-003    -0.53962009E-007     0.16499771E-006
     0.95000000E+000     0.22842689E-003    -0.50347253E-007     0.15587979E-006
     0.96000000E+000     0.17806932E-003    -0.44180985E-007     0.13997484E-006
     0.97000000E+000     0.10098921E-003    -0.39768856E-007     0.12556576E-006
     0.98000000E+000     0.51870844E-004    -0.37043717E-007     0.11210849E-006
     0.99000000E+000     0.38846447E-004    -0.32867566E-007     0.10510657E-006
     0.10000000E+001     0.11181005E-004    -0.29597861E-007     0.10037322E-006
     0.10100000E+001    -0.36871823E-004    -0.27025584E-007     0.94350538E-007
     0.10200000E+001    -0.57644295E-004    -0.22670900E-007     0.88168052E-007
     0.10300000E+001    -0.41619572E-004    -0.20375109E-007     0.80478485E-007
     0.10400000E+001    -0.23088140E-004    -0.20197449E-007     0.79615393E-007
     0.10500000E+001    -0.16135331E-004    -0.17774476E-007     0.71449424E-007
     0.10600000E+001    -0.67442609E-005    -0.16745825E-007     0.64681642E-007
     0.10700000E+001    -0.86642427E-006    -0.19425984E-007     0.59749474E-007
     0.10800000E+001    -0.25416487E-004    -0.20977493E-007     0.47765408E-007
     0.10900000E+001    -0.72772746E-004    -0.20849849E-007     0.46089871E-007
     0.11000000E+001    -0.11298961E-003    -0.20402294E-007     0.39732869E-007
     0.11100000E+001    -0.14849928E-003    -0.18582847E-007     0.27022421E-007
     0.11200000E+001    -0.18888184E-003    -0.13656535E-007     0.94307877E-008
     0.11300000E+001    -0.21895942E-003    -0.12719364E-007    -0.12390164E-007
     0.11400000E+001    -0.23178802E-003    -0.11153113E-007    -0.31745715E-007
     0.11500000E+001    -0.24532796E-003    -0.98520259E-008    -0.55363084E-007
     0.11600000E+001    -0.26987860E-003    -0.12356651E-007    -0.74714044E-007
     0.11700000E+001    -0.28477800E-003    -0.16103674E-007    -0.81249780E-007
     0.11800000E+001    -0.26502146E-003    -0.20280792E-007    -0.86815366E-007
     0.11900000E+001    -0.21542237E-003    -0.24959082E-007    -0.83750911E-007
     0.12000000E+001    -0.16235911E-003    -0.32393568E-007    -0.65358964E-007
     0.12100000E+001    -0.12523654E-003    -0.38000593E-007    -0.31344469E-007
     0.12200000E+001    -0.10339618E-003    -0.42818289E-007    -0.10161028E-007
     0.12300000E+001    -0.94370698E-004    -0.47894669E-007     0.19306873E-007
     0.12400000E+001    -0.10616848E-003    -0.51762070E-007     0.42858554E-007
     0.12500000E+001    -0.12445689E-003    -0.55060029E-007     0.61797472E-007
     0.12600000E+001    -0.11254554E-003    -0.54672869E-007     0.73805953E-007
     0.12700000E+001    -0.61446760E-004    -0.52497864E-007     0.73941953E-007
     0.12800000E+001     0.80439605E-005    -0.51191813E-007     0.49167564E-007
     0.12900000E+001     0.83361305E-004    -0.49209217E-007     0.22824639E-007
     0.13000000E+001     0.16675838E-003    -0.46520048E-007    -0.10683660E-007
     0.13100000E+001     0.24581030E-003    -0.46833214E-007    -0.39690808E-007
     0.13200000E+001     0.28770052E-003    -0.46719774E-007    -0.67172103E-007
     0.13300000E+001     0.28773803E-003    -0.51089285E-007    -0.81704973E-007
     0.13400000E+001     0.26994324E-003    -0.54533212E-007    -0.90501697E-007
     0.13500000E+001     0.22854021E-003    -0.56755995E-007    -0.90065368E-007
     0.13600000E+001     0.15240649E-003    -0.58407052E-007    -0.95622626E-007
     0.13700000E+001     0.79401531E-004    -0.57297596E-007    -0.88165834E-007
     0.13800000E+001     0.48158709E-004    -0.51600749E-007    -0.71388684E-007
     0.13900000E+001     0.45257378E-004    -0.46083288E-007    -0.58473834E-007
     0.14000000E+001     0.51652721E-004    -0.39072634E-007    -0.43937201E-007
     0.14100000E+001     0.87621821E-004    -0.32112209E-007    -0.23542380E-007
     0.14200000E+001     0.16624581E-003    -0.26831859E-007    -0.65961459E-009
     0.14300000E+001     0.25356133E-003    -0.22979231E-007     0.28789863E-007
     0.14400000E+001     0.31875373E-003    -0.17708947E-007     0.66761324E-007
     0.14500000E+001     0.36495532E-003    -0.13258248E-007     0.89767914E-007
     0.14600000E+001     0.38376560E-003    -0.13431386E-007     0.11130399E-006
     0.14700000E+001     0.34841502E-003    -0.15227550E-007     0.13944181E-006
     0.14800000E+001     0.26717603E-003    -0.18263865E-007     0.15348439E-006
     0.14900000E+001     0.17311429E-003    -0.19589091E-007     0.16630593E-006
     0.15000000E+001     0.63406205E-004    -0.20121933E-007     0.18166563E-006
     0.15100000E+001    -0.67527561E-004    -0.23482671E-007     0.18354512E-006
     0.15200000E+001    -0.17039848E-003    -0.27863240E-007     0.17451219E-006
     0.15300000E+001    -0.20737734E-003    -0.30626176E-007     0.16988296E-006
     0.15400000E+001    -0.21174821E-003    -0.32017760E-007     0.15733931E-006
     0.15500000E+001    -0.22602822E-003    -0.33965946E-007     0.14731448E-006
     0.15600000E+001    -0.24420876E-003    -0.34757512E-007     0.14150082E-006
     0.15700000E+001    -0.24075721E-003    -0.39060635E-007     0.12722781E-006
     0.15800000E+001    -0.22727710E-003    -0.42848749E-007     0.10934907E-006
     0.15900000E+001    -0.23328093E-003    -0.45790896E-007     0.93827936E-007
     0.16000000E+001    -0.24622808E-003    -0.47279688E-007     0.88966988E-007
     0.16100000E+001    -0.24273293E-003    -0.45917032E-007     0.83829166E-007
     0.16200000E+001    -0.23318171E-003    -0.41673757E-007     0.69490704E-007
     0.16300000E+001    -0.22692134E-003    -0.35583660E-007     0.53134838E-007
     0.16400000E+001    -0.21341213E-003    -0.31337434E-007     0.41383690E-007
     0.16500000E+001    -0.17748574E-003    -0.26211888E-007     0.44567335E-007
     0.16600000E+001    -0.11432133E-003    -0.19323656E-007     0.58753212E-007
     0.16700000E+001    -0.38070119E-004    -0.16463233E-007     0.79187959E-007
     0.16800000E+001     0.41419471E-004    -0.19074520E-007     0.89270176E-007
     0.16900000E+001     0.11980882E-003    -0.25717272E-007     0.92932249E-007
     0.17000000E+001     0.16548599E-003    -0.34592686E-007     0.98656342E-007
     0.17100000E+001     0.14565793E-003    -0.39992223E-007     0.98011020E-007
     0.17200000E+001     0.79039154E-004    -0.40887601E-007     0.90285736E-007
     0.17300000E+001     0.11136276E-004    -0.41471390E-007     0.79174463E-007
     0.17400000E+001    -0.46777416E-004    -0.43809522E-007     0.59655311E-007
     0.17500000E+001    -0.10337058E-003    -0.46309234E-007     0.21690323E-007
     0.17600000E+001    -0.13122256E-003    -0.50156706E-007    -0.19617627E-007
     0.17700000E+001    -0.96939771E-004    -0.54092915E-007    -0.60007060E-007
     0.17800000E+001    -0.28508011E-004    -0.53540067E-007    -0.10303761E-006
     0.17900000E+001     0.22763451E-004    -0.49386787E-007    -0.13286729E-006
     0.18000000E+001     0.63144046E-004    -0.47013098E-007    -0.13675310E-006
     0.18100000E+001     0.12338739E-003    -0.45166622E-007    -0.11338945E-006
     0.18200000E+001     0.17538505E-003    -0.41760605E-007    -0.88729392E-007
     0.18300000E+001     0.17612758E-003    -0.35898243E-007    -0.73171802E-007
     0.18400000E+001     0.15417270E-003    -0.29018327E-007    -0.54181098E-007
     0.18500000E+001     0.14331661E-003    -0.19894747E-007    -0.41169205E-007
     0.18600000E+001     0.10776521E-003    -0.80079825E-008    -0.32505949E-007
     0.18700000E+001     0.29403364E-004     0.53743821E-008    -0.19535281E-007
     0.18800000E+001    -0.39450692E-004     0.13615539E-007    -0.54611782E-009
     0.18900000E+001    -0.68272375E-004     0.17860192E-007     0.22313420E-007
     0.19000000E+001    -0.89568106E-004     0.20614734E-007     0.41541346E-007
     0.19100000E+001    -0.11460120E-003     0.16182633E-007     0.50329315E-007
     0.19200000E+001    -0.95710736E-004     0.77838473E-008     0.54426607E-007
     0.19300000E+001    -0.19613501E-004    -0.23342763E-008     0.53687049E-007
     0.19400000E+001     0.49340190E-004    -0.11739659E-007     0.48999259E-007
     0.19500000E+001     0.72033965E-004    -0.19254403E-007     0.37238800E-007
     0.19600000E+001     0.82404636E-004    -0.24865714E-007     0.14484105E-007
     0.19700000E+001     0.10227760E-003    -0.34401086E-007    -0.51106870E-008
     0.19800000E+001     0.99892341E-004    -0.45297237E-007    -0.96529496E-008
     0.19900000E+001     0.58132635E-004    -0.53200716E-007    -0.12215099E-007
     0.20000000E+001     0.14907274E-004    -0.57289621E-007    -0.10343408E-007
     0.20100000E+001     0.31203128E-005    -0.59539811E-007     0.84022957E-008
     0.20200000E+001     0.86404020E-005    -0.59593198E-007     0.32442227E-007
     0.20300000E+001     0.47435753E-005    -0.55991761E-007     0.44948260E-007
     0.20400000E+001    -0.15894869E-004    -0.48275930E-007     0.60345604E-007
     0.20500000E+001    -0.36616038E-004    -0.37238755E-007     0.70637061E-007
     0.20600000E+001    -0.45466219E-004    -0.27163054E-007     0.78993983E-007
     0.20700000E+001    -0.58564275E-004    -0.15050636E-007     0.92493499E-007
     0.20800000E+001    -0.80608609E-004     0.16744583E-009     0.10720818E-006
     0.20900000E+001    -0.94120325E-004     0.12545138E-007     0.11969781E-006
     0.21000000E+001    -0.98986607E-004     0.19053301E-007     0.13589211E-006
     0.21100000E+001    -0.10454951E-003     0.21263739E-007     0.15127370E-006
     0.21200000E+001    -0.10757120E-003     0.18389888E-007     0.16496274E-006
     0.21300000E+001    -0.10379731E-003     0.11616946E-007     0.16742456E-006
     0.21400000E+001    -0.97316263E-004     0.22273676E-008     0.17467065E-006
     0.21500000E+001    -0.89991534E-004    -0.11239247E-007     0.18602691E-006
     0.21600000E+001    -0.64514401E-004    -0.26133002E-007     0.18503339E-006
     0.21700000E+001    -0.41393568E-005    -0.39419726E-007     0.17785803E-006
     0.21800000E+001     0.75072333E-004    -0.48492886E-007     0.16838655E-006
     0.21900000E+001     0.15214002E-003    -0.51235480E-007     0.15302386E-006
     0.22000000E+001     0.22980895E-003    -0.48714400E-007     0.13793085E-006
     0.22100000E+001     0.29707378E-003    -0.43253320E-007     0.11541340E-006
     0.22200000E+001     0.32244840E-003    -0.34853326E-007     0.88456416E-007
     0.22300000E+001     0.30868804E-003    -0.23321104E-007     0.64414026E-007
     0.22400000E+001     0.28300021E-003    -0.13752448E-007     0.29316442E-007
     0.22500000E+001     0.23784569E-003    -0.62356813E-008     0.68835959E-009
     0.22600000E+001     0.15882288E-003    -0.11823771E-008    -0.18394161E-007
     0.22700000E+001     0.77425259E-004     0.17906425E-008    -0.34653300E-007
     0.22800000E+001     0.25340419E-004    -0.27214593E-008    -0.39211093E-007
     0.22900000E+001    -0.15542211E-004    -0.99555433E-008    -0.30514267E-007
     0.23000000E+001    -0.63260236E-004    -0.15509274E-007    -0.20995230E-007
     0.23100000E+001    -0.82166059E-004    -0.22911052E-007    -0.32653666E-008
     0.23200000E+001    -0.37860484E-004    -0.29487740E-007     0.86096819E-008
     0.23300000E+001     0.29683678E-004    -0.34279200E-007     0.28267821E-007
     0.23400000E+001     0.62344260E-004    -0.39718944E-007     0.40724499E-007
     0.23500000E+001     0.63447265E-004    -0.44626130E-007     0.34631048E-007
     0.23600000E+001     0.47189728E-004    -0.46557188E-007     0.32328614E-007
     0.23700000E+001    -0.59215831E-005    -0.49077224E-007     0.27425237E-007
     0.23800000E+001    -0.10228040E-003    -0.46151394E-007     0.10432822E-007
     0.23900000E+001    -0.21904199E-003    -0.42627216E-007    -0.18215181E-007
     0.24000000E+001    -0.32703312E-003    -0.37239420E-007    -0.41424200E-007
     0.24100000E+001    -0.40338354E-003    -0.29613255E-007    -0.73280374E-007
     0.24200000E+001    -0.43937868E-003    -0.25185027E-007    -0.10092848E-006
     0.24300000E+001    -0.43885623E-003    -0.24869348E-007    -0.11655171E-006
     0.24400000E+001    -0.41267745E-003    -0.24406889E-007    -0.13348142E-006
